t		 x		 v		 cos(t)		 de
 0.00000000E+00  1.00000000E+00  0.00000000E+00  1.00000000E+00  0.00000000E+00
 1.29550213E-01  9.93012844E-01 -1.29278428E-01  9.91620101E-01  1.39371047E-03
 2.59100425E-01  9.69361597E-01 -2.56750279E-01  9.66620850E-01  2.79130580E-03
 3.88650638E-01  9.29396244E-01 -3.80273869E-01  9.25421230E-01  4.19279682E-03
 5.18200850E-01  8.73741200E-01 -4.97767722E-01  8.68711737E-01  5.59819438E-03
 6.47751063E-01  8.03285605E-01 -6.07245630E-01  7.97442811E-01  7.00750938E-03
 7.77301275E-01  7.19169163E-01 -7.06850211E-01  7.12808905E-01  8.42075273E-03
 9.06851488E-01  6.22763732E-01 -7.94884397E-01  6.16228466E-01  9.83793538E-03
 1.03640170E+00  5.15650979E-01 -8.69840333E-01  5.09320162E-01  1.12590683E-02
 1.16595191E+00  3.99596455E-01 -9.30425171E-01  3.93875756E-01  1.26841626E-02
 1.29550213E+00  2.76520508E-01 -9.75583347E-01  2.71830072E-01  1.41132291E-02
 1.42505234E+00  1.48466535E-01 -1.00451493E+00  1.45228571E-01  1.55462791E-02
 1.55460255E+00  1.75670647E-02 -1.01668975E+00  1.61930688E-02  1.69833236E-02
 1.68415276E+00 -1.13991732E-01 -1.01185702E+00 -1.13113826E-01  1.84243738E-02
 1.81370298E+00 -2.44006539E-01 -9.90050347E-01 -2.40524956E-01  1.98694407E-02
 1.94325319E+00 -3.70293780E-01 -9.51587930E-01 -3.63904937E-01  2.13185357E-02
 2.07280340E+00 -4.90726272E-01 -8.97068039E-01 -4.81185944E-01  2.27716699E-02
 2.20235361E+00 -6.03269037E-01 -8.27359763E-01 -5.90402373E-01  2.42288546E-02
 2.33190383E+00 -7.06013672E-01 -7.43589199E-01 -6.89723777E-01  2.56901011E-02
 2.46145404E+00 -7.97210687E-01 -6.47121288E-01 -7.77485551E-01  2.71554207E-02
 2.59100425E+00 -8.75299275E-01 -5.39537606E-01 -8.52216824E-01  2.86248247E-02
 2.72055446E+00 -9.38933997E-01 -4.22610458E-01 -9.12665115E-01  3.00983246E-02
 2.85010468E+00 -9.87007934E-01 -2.98273702E-01 -9.57817324E-01  3.15759318E-02
 2.97965489E+00 -1.01867191E+00 -1.68590783E-01 -9.86916709E-01  3.30576577E-02
 3.10920510E+00 -1.03334944E+00 -3.57205091E-02 -9.99475569E-01  3.45435138E-02
 3.23875531E+00 -1.03074716E+00  9.81188675E-02 -9.95283421E-01  3.60335116E-02
 3.36830553E+00 -1.01086052E+00  2.30686669E-01 -9.74410525E-01  3.75276626E-02
 3.49785574E+00 -9.73974668E-01  3.59757284E-01 -9.37206705E-01  3.90259785E-02
 3.62740595E+00 -9.20660499E-01  4.83157518E-01 -8.84295491E-01  4.05284708E-02
 3.75695616E+00 -8.51765856E-01  5.98803163E-01 -8.16563663E-01  4.20351511E-02
 3.88650638E+00 -7.68402104E-01  7.04734183E-01 -7.35146394E-01  4.35460313E-02
 4.01605659E+00 -6.71926231E-01  7.99147912E-01 -6.41408220E-01  4.50611229E-02
 4.14560680E+00 -5.63918792E-01  8.80429708E-01 -5.36920174E-01  4.65804377E-02
 4.27515701E+00 -4.46158035E-01  9.47180544E-01 -4.23433454E-01  4.81039874E-02
 4.40470723E+00 -3.20590647E-01  9.98241055E-01 -3.02850076E-01  4.96317840E-02
 4.53425744E+00 -1.89299596E-01  1.03271164E+00 -1.77190992E-01  5.11638391E-02
 4.66380765E+00 -5.44695920E-02  1.04996828E+00 -4.85622221E-02  5.27001647E-02
 4.79335786E+00  8.16492447E-02  1.04967373E+00  8.08804404E-02  5.42407727E-02
 4.92290808E+00  2.16778919E-01  1.03178401E+00  2.08967563E-01  5.57856751E-02
 5.05245829E+00  3.48651666E-01  9.96549940E-01  3.33552432E-01  5.73348837E-02
 5.18200850E+00  4.75047993E-01  9.44513751E-01  4.52547029E-01  5.88884106E-02
 5.31155871E+00  5.93834012E-01  8.76500828E-01  5.63957030E-01  6.04462679E-02
 5.44110893E+00  7.02997450E-01  7.93606653E-01  6.65915225E-01  6.20084676E-02
 5.57065914E+00  8.00681719E-01  6.97179194E-01  7.56712816E-01  6.35750217E-02
 5.70020935E+00  8.85217461E-01  5.88797021E-01  8.34828053E-01  6.51459426E-02
 5.82975956E+00  9.55151062E-01  4.70243482E-01  8.98951741E-01  6.67212422E-02
 5.95930978E+00  1.00926961E+00  3.43477390E-01  9.48009180E-01  6.83009329E-02
 6.08885999E+00  1.04662190E+00  2.10600671E-01  9.81178177E-01  6.98850268E-02
 6.21841020E+00  1.06653512E+00  7.38235365E-02  9.97902826E-01  7.14735362E-02
 6.34796041E+00  1.06862686E+00 -6.45722637E-02  9.97902826E-01  7.30664735E-02
 6.47751063E+00  1.05281240E+00 -2.02271488E-01  9.81178177E-01  7.46638510E-02
 6.60706084E+00  1.01930689E+00 -3.36964118E-01  9.48009180E-01  7.62656811E-02
 6.73661105E+00  9.68622647E-01 -4.66384090E-01  8.98951741E-01  7.78719761E-02
 6.86616126E+00  9.01561328E-01 -5.88347405E-01  8.34828053E-01  7.94827486E-02
 6.99571148E+00  8.19201351E-01 -7.00788962E-01  7.56712816E-01  8.10980109E-02
 7.12526169E+00  7.22880568E-01 -8.01797503E-01  6.65915225E-01  8.27177757E-02
 7.25481190E+00  6.14174568E-01 -8.89648083E-01  5.63957030E-01  8.43420554E-02
 7.38436211E+00  4.94870928E-01 -9.62831496E-01  4.52547029E-01  8.59708627E-02
 7.51391233E+00  3.66939846E-01 -1.02008018E+00  3.33552432E-01  8.76042101E-02
 7.64346254E+00  2.32501618E-01 -1.06039013E+00  2.08967563E-01  8.92421104E-02
 7.77301275E+00  9.37915242E-02 -1.08303846E+00  8.08804404E-02  9.08845762E-02
 7.90256296E+00 -4.68773214E-02 -1.08759632E+00 -4.85622221E-02  9.25316203E-02
 8.03211318E+00 -1.87152525E-01 -1.07393689E+00 -1.77190992E-01  9.41832553E-02
 8.16166339E+00 -3.24681734E-01 -1.04223834E+00 -3.02850076E-01  9.58394942E-02
 8.29121360E+00 -4.57152067E-01 -9.92981715E-01 -4.23433454E-01  9.75003497E-02
 8.42076381E+00 -5.82328990E-01 -9.26943697E-01 -5.36920174E-01  9.91658346E-02
 8.55031403E+00 -6.98093991E-01 -8.45184420E-01 -6.41408220E-01  1.00835962E-01
 8.67986424E+00 -8.02480413E-01 -7.49030491E-01 -7.35146394E-01  1.02510745E-01
 8.80941445E+00 -8.93706842E-01 -6.40053492E-01 -8.16563663E-01  1.04190196E-01
 8.93896466E+00 -9.70207482E-01 -5.20044323E-01 -8.84295491E-01  1.05874328E-01
 9.06851488E+00 -1.03065900E+00 -3.90983794E-01 -9.37206705E-01  1.07563155E-01
 9.19806509E+00 -1.07400340E+00 -2.55009953E-01 -9.74410525E-01  1.09256689E-01
 9.32761530E+00 -1.09946646E+00 -1.14382688E-01 -9.95283421E-01  1.10954944E-01
 9.45716551E+00 -1.10657153E+00  2.85538172E-02 -9.99475569E-01  1.12657933E-01
 9.58671573E+00 -1.09514835E+00  1.71410135E-01 -9.86916709E-01  1.14365668E-01
 9.71626594E+00 -1.06533674E+00  3.11791523E-01 -9.57817324E-01  1.16078164E-01
 9.84581615E+00 -1.01758515E+00  4.47338046E-01 -9.12665115E-01  1.17795433E-01
 9.97536636E+00 -9.52643965E-01  5.75764235E-01 -8.52216824E-01  1.19517489E-01
 1.01049166E+01 -8.71553798E-01  6.94897595E-01 -7.77485551E-01  1.21244345E-01
 1.02344668E+01 -7.75628847E-01  8.02715342E-01 -6.89723777E-01  1.22976015E-01
 1.03640170E+01 -6.66435630E-01  8.97378723E-01 -5.90402373E-01  1.24712511E-01
 1.04935672E+01 -5.45767430E-01  9.77264349E-01 -4.81185944E-01  1.26453848E-01
 1.06231174E+01 -4.15614869E-01  1.04099201E+00 -3.63904937E-01  1.28200038E-01
 1.07526676E+01 -2.78133093E-01  1.08744847E+00 -2.40524956E-01  1.29951096E-01
 1.08822179E+01 -1.35606105E-01  1.11580691E+00 -1.13113826E-01  1.31707035E-01
 1.10117681E+01  9.59115963E-03  1.12554153E+00  1.61930688E-02  1.33467869E-01
 1.11413183E+01  1.55032385E-01  1.11643727E+00  1.45228571E-01  1.35233610E-01
 1.12708685E+01  2.98280405E-01  1.08859421E+00  2.71830072E-01  1.37004274E-01
 1.14004187E+01  4.36928022E-01  1.04242681E+00  3.93875756E-01  1.38779873E-01
 1.15299689E+01  5.68638437E-01  9.78657841E-01  5.09320162E-01  1.40560421E-01
 1.16595191E+01  6.91184619E-01  8.98307123E-01  6.16228466E-01  1.42345933E-01
 1.17890693E+01  8.02486937E-01  8.02675250E-01  7.12808905E-01  1.44136421E-01
 1.19186196E+01  9.00648431E-01  6.93322584E-01  7.97442811E-01  1.45931901E-01
 1.20481698E+01  9.83987114E-01  5.72043817E-01  8.68711737E-01  1.47732385E-01
 1.21777200E+01  1.05106477E+00  4.40838551E-01  9.25421230E-01  1.49537887E-01
 1.23072702E+01  1.10071173E+00  3.01878342E-01  9.66620850E-01  1.51348423E-01
 1.24368204E+01  1.13204724E+00  1.57470788E-01  9.91620101E-01  1.53164005E-01
